#t = 184790600.000000 [s], N conservation: 9.001e-01 
#gam, dgam, dN/dgam, Ee*dN, dN/dgam/dt, dgam/dt, tad[s], tsyn[s] 
1.000000e+00 1.017514e-02 3.354419e+57 2.794409e+49 5.552235e+44 5.416960e-09 1.846054e+08 9.461103e+17 
1.010175e+00 1.027868e-02 2.612998e+54 2.221289e+46 5.468558e+44 5.472078e-09 1.846054e+08 9.365804e+17 
1.020454e+00 1.038326e-02 2.573606e+54 2.232551e+46 5.386142e+44 5.527757e-09 1.846054e+08 9.271466e+17 
1.030837e+00 1.048892e-02 2.534807e+54 2.243870e+46 5.304968e+44 5.584003e-09 1.846054e+08 9.178077e+17 
1.041326e+00 1.059564e-02 2.496594e+54 2.255247e+46 5.225018e+44 5.640821e-09 1.846054e+08 9.085630e+17 
1.051922e+00 1.070345e-02 2.458956e+54 2.266680e+46 5.146272e+44 5.698217e-09 1.846054e+08 8.994113e+17 
1.062625e+00 1.081236e-02 2.421886e+54 2.278172e+46 5.068714e+44 5.756197e-09 1.846054e+08 8.903519e+17 
1.073437e+00 1.092238e-02 2.385374e+54 2.289722e+46 4.992324e+44 5.814767e-09 1.846054e+08 8.813837e+17 
1.084360e+00 1.103352e-02 2.349413e+54 2.301331e+46 4.917085e+44 5.873933e-09 1.846054e+08 8.725058e+17 
1.095393e+00 1.114578e-02 2.313994e+54 2.312998e+46 4.842980e+44 5.933702e-09 1.846054e+08 8.637174e+17 
1.106539e+00 1.125919e-02 2.279109e+54 2.324724e+46 4.769992e+44 5.994078e-09 1.846054e+08 8.550174e+17 
1.117798e+00 1.137376e-02 2.244750e+54 2.336510e+46 4.698104e+44 6.055068e-09 1.846054e+08 8.464051e+17 
1.129172e+00 1.148949e-02 2.210909e+54 2.348355e+46 4.627300e+44 6.116680e-09 1.846054e+08 8.378796e+17 
1.140662e+00 1.160640e-02 2.177577e+54 2.360261e+46 4.557562e+44 6.178918e-09 1.846054e+08 8.294399e+17 
1.152268e+00 1.172449e-02 2.144749e+54 2.372226e+46 4.488876e+44 6.241789e-09 1.846054e+08 8.210853e+17 
1.163992e+00 1.184379e-02 2.112415e+54 2.384253e+46 4.421225e+44 6.305300e-09 1.846054e+08 8.128148e+17 
1.175836e+00 1.196430e-02 2.080568e+54 2.396340e+46 4.354593e+44 6.369458e-09 1.846054e+08 8.046276e+17 
1.187801e+00 1.208604e-02 2.049202e+54 2.408488e+46 4.288966e+44 6.434268e-09 1.846054e+08 7.965228e+17 
1.199887e+00 1.220902e-02 2.018308e+54 2.420698e+46 4.224327e+44 6.499737e-09 1.846054e+08 7.884997e+17 
1.212096e+00 1.233325e-02 1.987880e+54 2.432970e+46 4.160663e+44 6.565873e-09 1.846054e+08 7.805574e+17 
1.224429e+00 1.245874e-02 1.957911e+54 2.445304e+46 4.097958e+44 6.632682e-09 1.846054e+08 7.726952e+17 
1.236888e+00 1.258551e-02 1.928393e+54 2.457700e+46 4.036198e+44 6.700170e-09 1.846054e+08 7.649121e+17 
1.249473e+00 1.271357e-02 1.899321e+54 2.470159e+46 3.975369e+44 6.768345e-09 1.846054e+08 7.572074e+17 
1.262187e+00 1.284293e-02 1.870686e+54 2.482681e+46 3.915457e+44 6.837214e-09 1.846054e+08 7.495803e+17 
1.275030e+00 1.297361e-02 1.842484e+54 2.495267e+46 3.856448e+44 6.906784e-09 1.846054e+08 7.420300e+17 
1.288003e+00 1.310562e-02 1.814706e+54 2.507916e+46 3.798328e+44 6.977061e-09 1.846054e+08 7.345558e+17 
1.301109e+00 1.323897e-02 1.787347e+54 2.520629e+46 3.741084e+44 7.048054e-09 1.846054e+08 7.271569e+17 
1.314348e+00 1.337368e-02 1.760401e+54 2.533407e+46 3.684702e+44 7.119769e-09 1.846054e+08 7.198325e+17 
1.327721e+00 1.350976e-02 1.733861e+54 2.546249e+46 3.629171e+44 7.192214e-09 1.846054e+08 7.125819e+17 
1.341231e+00 1.364722e-02 1.707720e+54 2.559157e+46 3.574476e+44 7.265396e-09 1.846054e+08 7.054043e+17 
1.354878e+00 1.378608e-02 1.681974e+54 2.572129e+46 3.520605e+44 7.339322e-09 1.846054e+08 6.982990e+17 
1.368665e+00 1.392636e-02 1.656616e+54 2.585168e+46 3.467547e+44 7.414001e-09 1.846054e+08 6.912653e+17 
1.382591e+00 1.406806e-02 1.631640e+54 2.598272e+46 3.415288e+44 7.489439e-09 1.846054e+08 6.843024e+17 
1.396659e+00 1.421121e-02 1.607041e+54 2.611443e+46 3.363816e+44 7.565645e-09 1.846054e+08 6.774096e+17 
1.410870e+00 1.435581e-02 1.582813e+54 2.624680e+46 3.313121e+44 7.642627e-09 1.846054e+08 6.705863e+17 
1.425226e+00 1.450188e-02 1.558949e+54 2.637985e+46 3.263189e+44 7.720392e-09 1.846054e+08 6.638317e+17 
1.439728e+00 1.464944e-02 1.535446e+54 2.651356e+46 3.214010e+44 7.798948e-09 1.846054e+08 6.571452e+17 
1.454377e+00 1.479850e-02 1.512297e+54 2.664796e+46 3.165572e+44 7.878303e-09 1.846054e+08 6.505260e+17 
1.469176e+00 1.494907e-02 1.489496e+54 2.678303e+46 3.117864e+44 7.958466e-09 1.846054e+08 6.439735e+17 
1.484125e+00 1.510118e-02 1.467040e+54 2.691879e+46 3.070875e+44 8.039445e-09 1.846054e+08 6.374870e+17 
1.499226e+00 1.525484e-02 1.444922e+54 2.705524e+46 3.024595e+44 8.121247e-09 1.846054e+08 6.310658e+17 
1.514481e+00 1.541006e-02 1.423137e+54 2.719237e+46 2.979011e+44 8.203882e-09 1.846054e+08 6.247093e+17 
1.529891e+00 1.556686e-02 1.401681e+54 2.733020e+46 2.934115e+44 8.287358e-09 1.846054e+08 6.184168e+17 
1.545458e+00 1.572526e-02 1.380548e+54 2.746873e+46 2.889895e+44 8.371683e-09 1.846054e+08 6.121877e+17 
1.561183e+00 1.588526e-02 1.359734e+54 2.760796e+46 2.846342e+44 8.456866e-09 1.846054e+08 6.060213e+17 
1.577068e+00 1.604690e-02 1.339233e+54 2.774789e+46 2.803445e+44 8.542916e-09 1.846054e+08 5.999171e+17 
1.593115e+00 1.621018e-02 1.319042e+54 2.788854e+46 2.761195e+44 8.629841e-09 1.846054e+08 5.938743e+17 
1.609325e+00 1.637512e-02 1.299155e+54 2.802989e+46 2.719581e+44 8.717651e-09 1.846054e+08 5.878924e+17 
1.625701e+00 1.654174e-02 1.279567e+54 2.817196e+46 2.678595e+44 8.806354e-09 1.846054e+08 5.819708e+17 
1.642242e+00 1.671005e-02 1.260275e+54 2.831475e+46 2.638226e+44 8.895960e-09 1.846054e+08 5.761088e+17 
1.658952e+00 1.688008e-02 1.241274e+54 2.845826e+46 2.598466e+44 8.986478e-09 1.846054e+08 5.703059e+17 
1.675832e+00 1.705184e-02 1.222560e+54 2.860250e+46 2.559305e+44 9.077916e-09 1.846054e+08 5.645614e+17 
1.692884e+00 1.722534e-02 1.204127e+54 2.874746e+46 2.520734e+44 9.170286e-09 1.846054e+08 5.588748e+17 
1.710110e+00 1.740061e-02 1.185972e+54 2.889316e+46 2.482744e+44 9.263595e-09 1.846054e+08 5.532454e+17 
1.727510e+00 1.757766e-02 1.168091e+54 2.903960e+46 2.445327e+44 9.357853e-09 1.846054e+08 5.476728e+17 
1.745088e+00 1.775652e-02 1.150479e+54 2.918678e+46 2.408474e+44 9.453070e-09 1.846054e+08 5.421562e+17 
1.762844e+00 1.793719e-02 1.133133e+54 2.933471e+46 2.372176e+44 9.549257e-09 1.846054e+08 5.366953e+17 
1.780782e+00 1.811971e-02 1.116049e+54 2.948338e+46 2.336425e+44 9.646422e-09 1.846054e+08 5.312893e+17 
1.798901e+00 1.830408e-02 1.099222e+54 2.963280e+46 2.301213e+44 9.744576e-09 1.846054e+08 5.259378e+17 
1.817205e+00 1.849033e-02 1.082648e+54 2.978298e+46 2.266532e+44 9.843728e-09 1.846054e+08 5.206403e+17 
1.835696e+00 1.867847e-02 1.066325e+54 2.993392e+46 2.232373e+44 9.943889e-09 1.846054e+08 5.153960e+17 
1.854374e+00 1.886852e-02 1.050247e+54 3.008563e+46 2.198730e+44 1.004507e-08 1.846054e+08 5.102046e+17 
1.873243e+00 1.906051e-02 1.034412e+54 3.023810e+46 2.165593e+44 1.014728e-08 1.846054e+08 5.050655e+17 
1.892303e+00 1.925446e-02 1.018816e+54 3.039135e+46 2.132955e+44 1.025053e-08 1.846054e+08 4.999782e+17 
1.911558e+00 1.945037e-02 1.003455e+54 3.054536e+46 2.100810e+44 1.035483e-08 1.846054e+08 4.949421e+17 
1.931008e+00 1.964828e-02 9.883250e+53 3.070016e+46 2.069149e+44 1.046019e-08 1.846054e+08 4.899567e+17 
1.950656e+00 1.984821e-02 9.734234e+53 3.085574e+46 2.037965e+44 1.056663e-08 1.846054e+08 4.850215e+17 
1.970504e+00 2.005017e-02 9.587464e+53 3.101211e+46 2.007251e+44 1.067414e-08 1.846054e+08 4.801361e+17 
1.990555e+00 2.025418e-02 9.442907e+53 3.116927e+46 1.977000e+44 1.078275e-08 1.846054e+08 4.752998e+17 
2.010809e+00 2.046027e-02 9.300529e+53 3.132723e+46 1.947205e+44 1.089247e-08 1.846054e+08 4.705123e+17 
2.031269e+00 2.066846e-02 9.160297e+53 3.148598e+46 1.917859e+44 1.100330e-08 1.846054e+08 4.657730e+17 
2.051938e+00 2.087876e-02 9.022179e+53 3.164554e+46 1.888955e+44 1.111526e-08 1.846054e+08 4.610814e+17 
2.072816e+00 2.109120e-02 8.886144e+53 3.180590e+46 1.860487e+44 1.122836e-08 1.846054e+08 4.564371e+17 
2.093908e+00 2.130581e-02 8.752159e+53 3.196708e+46 1.832448e+44 1.134261e-08 1.846054e+08 4.518396e+17 
2.115213e+00 2.152260e-02 8.620194e+53 3.212907e+46 1.804831e+44 1.145803e-08 1.846054e+08 4.472883e+17 
2.136736e+00 2.174160e-02 8.490218e+53 3.229188e+46 1.777631e+44 1.157461e-08 1.846054e+08 4.427830e+17 
2.158478e+00 2.196282e-02 8.362202e+53 3.245551e+46 1.750840e+44 1.169239e-08 1.846054e+08 4.383230e+17 
2.180440e+00 2.218629e-02 8.236116e+53 3.261997e+46 1.724454e+44 1.181136e-08 1.846054e+08 4.339079e+17 
2.202627e+00 2.241204e-02 8.111930e+53 3.278527e+46 1.698465e+44 1.193154e-08 1.846054e+08 4.295373e+17 
2.225039e+00 2.264009e-02 7.989617e+53 3.295140e+46 1.672867e+44 1.205294e-08 1.846054e+08 4.252107e+17 
2.247679e+00 2.287045e-02 7.869147e+53 3.311837e+46 1.647656e+44 1.217559e-08 1.846054e+08 4.209277e+17 
2.270549e+00 2.310316e-02 7.750494e+53 3.328618e+46 1.622824e+44 1.229947e-08 1.846054e+08 4.166878e+17 
2.293652e+00 2.333824e-02 7.633629e+53 3.345484e+46 1.598367e+44 1.242462e-08 1.846054e+08 4.124907e+17 
2.316991e+00 2.357571e-02 7.518526e+53 3.362436e+46 1.574278e+44 1.255104e-08 1.846054e+08 4.083358e+17 
2.340566e+00 2.381560e-02 7.405159e+53 3.379473e+46 1.550552e+44 1.267875e-08 1.846054e+08 4.042228e+17 
2.364382e+00 2.405793e-02 7.293500e+53 3.396597e+46 1.527184e+44 1.280776e-08 1.846054e+08 4.001512e+17 
2.388440e+00 2.430272e-02 7.183525e+53 3.413807e+46 1.504168e+44 1.293808e-08 1.846054e+08 3.961206e+17 
2.412743e+00 2.455000e-02 7.075207e+53 3.431104e+46 1.481499e+44 1.306973e-08 1.846054e+08 3.921306e+17 
2.437293e+00 2.479980e-02 6.968523e+53 3.448489e+46 1.459172e+44 1.320272e-08 1.846054e+08 3.881808e+17 
2.462092e+00 2.505214e-02 6.863447e+53 3.465961e+46 1.437181e+44 1.333706e-08 1.846054e+08 3.842708e+17 
2.487145e+00 2.530705e-02 6.759955e+53 3.483522e+46 1.415521e+44 1.347276e-08 1.846054e+08 3.804002e+17 
2.512452e+00 2.556456e-02 6.658023e+53 3.501172e+46 1.394188e+44 1.360985e-08 1.846054e+08 3.765685e+17 
2.538016e+00 2.582468e-02 6.557627e+53 3.518911e+46 1.373176e+44 1.374833e-08 1.846054e+08 3.727755e+17 
2.563841e+00 2.608745e-02 6.458746e+53 3.536739e+46 1.352481e+44 1.388822e-08 1.846054e+08 3.690207e+17 
2.589928e+00 2.635289e-02 6.361355e+53 3.554658e+46 1.332098e+44 1.402954e-08 1.846054e+08 3.653036e+17 
2.616281e+00 2.662104e-02 6.265432e+53 3.572668e+46 1.312022e+44 1.417229e-08 1.846054e+08 3.616241e+17 
2.642902e+00 2.689191e-02 6.170955e+53 3.590768e+46 1.292249e+44 1.431649e-08 1.846054e+08 3.579816e+17 
2.669794e+00 2.716554e-02 6.077903e+53 3.608960e+46 1.272774e+44 1.446217e-08 1.846054e+08 3.543757e+17 
2.696960e+00 2.744195e-02 5.986254e+53 3.627244e+46 1.253592e+44 1.460932e-08 1.846054e+08 3.508062e+17 
2.724402e+00 2.772118e-02 5.895986e+53 3.645620e+46 1.234699e+44 1.475797e-08 1.846054e+08 3.472727e+17 
2.752123e+00 2.800324e-02 5.807079e+53 3.664090e+46 1.216091e+44 1.490814e-08 1.846054e+08 3.437747e+17 
2.780126e+00 2.828818e-02 5.719512e+53 3.682652e+46 1.197764e+44 1.505983e-08 1.846054e+08 3.403120e+17 
2.808414e+00 2.857602e-02 5.633266e+53 3.701309e+46 1.179712e+44 1.521307e-08 1.846054e+08 3.368842e+17 
2.836990e+00 2.886678e-02 5.548319e+53 3.720060e+46 1.161933e+44 1.536786e-08 1.846054e+08 3.334908e+17 
2.865857e+00 2.916051e-02 5.464654e+53 3.738905e+46 1.144422e+44 1.552423e-08 1.846054e+08 3.301317e+17 
2.895018e+00 2.945722e-02 5.382249e+53 3.757846e+46 1.127174e+44 1.568219e-08 1.846054e+08 3.268064e+17 
2.924475e+00 2.975695e-02 5.301088e+53 3.776883e+46 1.110187e+44 1.584176e-08 1.846054e+08 3.235146e+17 
2.954232e+00 3.005973e-02 5.221149e+53 3.796015e+46 1.093455e+44 1.600295e-08 1.846054e+08 3.202559e+17 
2.984291e+00 3.036559e-02 5.142416e+53 3.815245e+46 1.076976e+44 1.616579e-08 1.846054e+08 3.170301e+17 
3.014657e+00 3.067457e-02 5.064870e+53 3.834572e+46 1.060745e+44 1.633028e-08 1.846054e+08 3.138368e+17 
3.045332e+00 3.098669e-02 4.988493e+53 3.853996e+46 1.044759e+44 1.649644e-08 1.846054e+08 3.106756e+17 
3.076318e+00 3.130198e-02 4.913267e+53 3.873519e+46 1.029013e+44 1.666429e-08 1.846054e+08 3.075463e+17 
3.107620e+00 3.162048e-02 4.839175e+53 3.893140e+46 1.013505e+44 1.683385e-08 1.846054e+08 3.044485e+17 
3.139241e+00 3.194223e-02 4.766201e+53 3.912860e+46 9.982307e+43 1.700514e-08 1.846054e+08 3.013819e+17 
3.171183e+00 3.226724e-02 4.694326e+53 3.932680e+46 9.831865e+43 1.717817e-08 1.846054e+08 2.983462e+17 
3.203450e+00 3.259557e-02 4.623536e+53 3.952601e+46 9.683690e+43 1.735296e-08 1.846054e+08 2.953410e+17 
3.236046e+00 3.292723e-02 4.553812e+53 3.972621e+46 9.537749e+43 1.752953e-08 1.846054e+08 2.923662e+17 
3.268973e+00 3.326227e-02 4.485140e+53 3.992744e+46 9.394006e+43 1.770789e-08 1.846054e+08 2.894213e+17 
3.302235e+00 3.360072e-02 4.417503e+53 4.012967e+46 9.252431e+43 1.788808e-08 1.846054e+08 2.865060e+17 
3.335836e+00 3.394261e-02 4.350886e+53 4.033293e+46 9.112988e+43 1.807009e-08 1.846054e+08 2.836201e+17 
3.369779e+00 3.428798e-02 4.285273e+53 4.053722e+46 8.975648e+43 1.825395e-08 1.846054e+08 2.807633e+17 
3.404067e+00 3.463687e-02 4.220649e+53 4.074254e+46 8.840377e+43 1.843969e-08 1.846054e+08 2.779353e+17 
3.438703e+00 3.498930e-02 4.157000e+53 4.094889e+46 8.707145e+43 1.862732e-08 1.846054e+08 2.751358e+17 
3.473693e+00 3.534532e-02 4.094310e+53 4.115629e+46 8.575921e+43 1.881685e-08 1.846054e+08 2.723644e+17 
3.509038e+00 3.570497e-02 4.032565e+53 4.136474e+46 8.446674e+43 1.900832e-08 1.846054e+08 2.696210e+17 
3.544743e+00 3.606827e-02 3.971751e+53 4.157424e+46 8.319375e+43 1.920173e-08 1.846054e+08 2.669052e+17 
3.580811e+00 3.643527e-02 3.911854e+53 4.178480e+46 8.193995e+43 1.939711e-08 1.846054e+08 2.642167e+17 
3.617247e+00 3.680600e-02 3.852860e+53 4.199642e+46 8.070504e+43 1.959448e-08 1.846054e+08 2.615554e+17 
3.654053e+00 3.718051e-02 3.794756e+53 4.220911e+46 7.948875e+43 1.979386e-08 1.846054e+08 2.589208e+17 
3.691233e+00 3.755883e-02 3.737528e+53 4.242288e+46 7.829079e+43 1.999526e-08 1.846054e+08 2.563128e+17 
3.728792e+00 3.794099e-02 3.681162e+53 4.263772e+46 7.711088e+43 2.019872e-08 1.846054e+08 2.537310e+17 
3.766733e+00 3.832705e-02 3.625646e+53 4.285365e+46 7.594875e+43 2.040424e-08 1.846054e+08 2.511753e+17 
3.805060e+00 3.871703e-02 3.570967e+53 4.307067e+46 7.480413e+43 2.061186e-08 1.846054e+08 2.486453e+17 
3.843777e+00 3.911098e-02 3.517113e+53 4.328879e+46 7.367677e+43 2.082158e-08 1.846054e+08 2.461408e+17 
3.882888e+00 3.950894e-02 3.464071e+53 4.350801e+46 7.256640e+43 2.103345e-08 1.846054e+08 2.436615e+17 
3.922397e+00 3.991095e-02 3.411828e+53 4.372833e+46 7.147276e+43 2.124747e-08 1.846054e+08 2.412072e+17 
3.962308e+00 4.031705e-02 3.360373e+53 4.394977e+46 7.039560e+43 2.146366e-08 1.846054e+08 2.387776e+17 
4.002625e+00 4.072728e-02 3.309693e+53 4.417233e+46 6.933468e+43 2.168206e-08 1.846054e+08 2.363724e+17 
4.043352e+00 4.114169e-02 3.259778e+53 4.439601e+46 6.828975e+43 2.190268e-08 1.846054e+08 2.339916e+17 
4.084494e+00 4.156031e-02 3.210616e+53 4.462082e+46 6.726056e+43 2.212554e-08 1.846054e+08 2.316346e+17 
4.126054e+00 4.198319e-02 3.162194e+53 4.484677e+46 6.624688e+43 2.235067e-08 1.846054e+08 2.293015e+17 
4.168037e+00 4.241038e-02 3.114503e+53 4.507385e+46 6.524849e+43 2.257809e-08 1.846054e+08 2.269918e+17 
4.210448e+00 4.284191e-02 3.067531e+53 4.530209e+46 6.426514e+43 2.280783e-08 1.846054e+08 2.247054e+17 
4.253290e+00 4.327783e-02 3.021266e+53 4.553147e+46 6.329660e+43 2.303990e-08 1.846054e+08 2.224420e+17 
4.296568e+00 4.371819e-02 2.975700e+53 4.576202e+46 6.234267e+43 2.327433e-08 1.846054e+08 2.202014e+17 
4.340286e+00 4.416303e-02 2.930820e+53 4.599373e+46 6.140311e+43 2.351115e-08 1.846054e+08 2.179834e+17 
4.384449e+00 4.461240e-02 2.886617e+53 4.622660e+46 6.047771e+43 2.375038e-08 1.846054e+08 2.157877e+17 
4.429061e+00 4.506633e-02 2.843081e+53 4.646066e+46 5.956626e+43 2.399205e-08 1.846054e+08 2.136142e+17 
4.474127e+00 4.552489e-02 2.800201e+53 4.669589e+46 5.866855e+43 2.423617e-08 1.846054e+08 2.114625e+17 
4.519652e+00 4.598811e-02 2.757968e+53 4.693232e+46 5.778436e+43 2.448277e-08 1.846054e+08 2.093325e+17 
4.565640e+00 4.645605e-02 2.716371e+53 4.716993e+46 5.691350e+43 2.473189e-08 1.846054e+08 2.072240e+17 
4.612097e+00 4.692874e-02 2.675401e+53 4.740875e+46 5.605576e+43 2.498354e-08 1.846054e+08 2.051367e+17 
4.659025e+00 4.740625e-02 2.635050e+53 4.764877e+46 5.521095e+43 2.523775e-08 1.846054e+08 2.030704e+17 
4.706432e+00 4.788862e-02 2.595306e+53 4.789000e+46 5.437888e+43 2.549455e-08 1.846054e+08 2.010250e+17 
4.754320e+00 4.837589e-02 2.556162e+53 4.813245e+46 5.355934e+43 2.575396e-08 1.846054e+08 1.990001e+17 
4.802696e+00 4.886812e-02 2.517608e+53 4.837612e+46 5.275215e+43 2.601601e-08 1.846054e+08 1.969957e+17 
4.851564e+00 4.936536e-02 2.479635e+53 4.862103e+46 5.195713e+43 2.628073e-08 1.846054e+08 1.950114e+17 
4.900930e+00 4.986766e-02 2.442235e+53 4.886717e+46 5.117409e+43 2.654814e-08 1.846054e+08 1.930471e+17 
4.950797e+00 5.037507e-02 2.405399e+53 4.911455e+46 5.040286e+43 2.681827e-08 1.846054e+08 1.911026e+17 
5.001172e+00 5.088765e-02 2.369118e+53 4.936318e+46 4.964324e+43 2.709115e-08 1.846054e+08 1.891777e+17 
5.052060e+00 5.140544e-02 2.333385e+53 4.961306e+46 4.889508e+43 2.736680e-08 1.846054e+08 1.872722e+17 
5.103465e+00 5.192849e-02 2.298190e+53 4.986421e+46 4.815818e+43 2.764527e-08 1.846054e+08 1.853858e+17 
5.155394e+00 5.245687e-02 2.263525e+53 5.011662e+46 4.743240e+43 2.792656e-08 1.846054e+08 1.835185e+17 
5.207851e+00 5.299063e-02 2.229384e+53 5.037031e+46 4.671755e+43 2.821072e-08 1.846054e+08 1.816700e+17 
5.260841e+00 5.352982e-02 2.195757e+53 5.062528e+46 4.601348e+43 2.849777e-08 1.846054e+08 1.798401e+17 
5.314371e+00 5.407449e-02 2.162637e+53 5.088153e+46 4.532001e+43 2.878773e-08 1.846054e+08 1.780286e+17 
5.368446e+00 5.462471e-02 2.130017e+53 5.113907e+46 4.463700e+43 2.908065e-08 1.846054e+08 1.762354e+17 
5.423070e+00 5.518052e-02 2.097888e+53 5.139792e+46 4.396428e+43 2.937655e-08 1.846054e+08 1.744603e+17 
5.478251e+00 5.574199e-02 2.066244e+53 5.165807e+46 4.330170e+43 2.967546e-08 1.846054e+08 1.727030e+17 
5.533993e+00 5.630917e-02 2.035077e+53 5.191953e+46 4.264911e+43 2.997742e-08 1.846054e+08 1.709634e+17 
5.590302e+00 5.688213e-02 2.004380e+53 5.218231e+46 4.200635e+43 3.028244e-08 1.846054e+08 1.692413e+17 
5.647184e+00 5.746091e-02 1.974146e+53 5.244642e+46 4.137328e+43 3.059057e-08 1.846054e+08 1.675366e+17 
5.704645e+00 5.804558e-02 1.944367e+53 5.271186e+46 4.074975e+43 3.090183e-08 1.846054e+08 1.658491e+17 
5.762691e+00 5.863620e-02 1.915038e+53 5.297864e+46 4.013561e+43 3.121626e-08 1.846054e+08 1.641786e+17 
5.821327e+00 5.923284e-02 1.886151e+53 5.324676e+46 3.953073e+43 3.153389e-08 1.846054e+08 1.625248e+17 
5.880560e+00 5.983554e-02 1.857700e+53 5.351623e+46 3.893497e+43 3.185475e-08 1.846054e+08 1.608878e+17 
5.940395e+00 6.044437e-02 1.829677e+53 5.378707e+46 3.834819e+43 3.217888e-08 1.846054e+08 1.592672e+17 
6.000840e+00 6.105940e-02 1.802077e+53 5.405927e+46 3.777025e+43 3.250631e-08 1.846054e+08 1.576630e+17 
6.061899e+00 6.168069e-02 1.774893e+53 5.433284e+46 3.720102e+43 3.283706e-08 1.846054e+08 1.560749e+17 
6.123580e+00 6.230830e-02 1.748119e+53 5.460779e+46 3.664037e+43 3.317118e-08 1.846054e+08 1.545028e+17 
6.185888e+00 6.294230e-02 1.721749e+53 5.488413e+46 3.608816e+43 3.350871e-08 1.846054e+08 1.529466e+17 
6.248830e+00 6.358275e-02 1.695777e+53 5.516186e+46 3.554428e+43 3.384966e-08 1.846054e+08 1.514060e+17 
6.312413e+00 6.422971e-02 1.670196e+53 5.544099e+46 3.500860e+43 3.419409e-08 1.846054e+08 1.498809e+17 
6.376643e+00 6.488326e-02 1.645001e+53 5.572153e+46 3.448099e+43 3.454202e-08 1.846054e+08 1.483712e+17 
6.441526e+00 6.554345e-02 1.620186e+53 5.600348e+46 3.396133e+43 3.489349e-08 1.846054e+08 1.468767e+17 
6.507069e+00 6.621037e-02 1.595745e+53 5.628686e+46 3.344950e+43 3.524853e-08 1.846054e+08 1.453973e+17 
6.573280e+00 6.688407e-02 1.571672e+53 5.657166e+46 3.294539e+43 3.560719e-08 1.846054e+08 1.439328e+17 
6.640164e+00 6.756462e-02 1.547963e+53 5.685790e+46 3.244888e+43 3.596950e-08 1.846054e+08 1.424830e+17 
6.707729e+00 6.825210e-02 1.524611e+53 5.714558e+46 3.195984e+43 3.633549e-08 1.846054e+08 1.410478e+17 
